Frequency/(GHz)	Photocurrent/(nA)
202.825	539.779
204.374	418.542
205.845	528.931
206.820	486.744
208.347	365.791
209.923	483.166
211.048	529.407
212.523	444.633
213.998	497.100
214.946	480.258
216.368	358.263
217.870	481.567
218.947	562.658
219.973	395.503
221.598	326.192
223.297	419.236
224.600	369.145
225.899	424.518
226.999	526.094
228.127	403.396
229.623	368.062
231.071	495.077
232.146	507.362
233.597	424.377
235.148	382.948
236.374	368.023
237.824	393.861
239.197	449.449
240.247	467.952
241.749	395.733
243.148	328.007
244.372	322.351
245.923	292.431
247.148	334.158
248.274	422.328
249.499	331.404
250.871	290.381
252.422	340.629
253.649	317.113
255.023	368.794
256.397	385.578
257.448	317.248
258.948	288.871
260.395	272.439
261.497	312.515
263.050	320.370
264.450	312.707
265.573	334.932
267.197	267.053
268.523	272.806
269.548	326.525
271.124	265.602
272.473	274.422
273.573	316.776
274.722	280.911
276.072	319.291
277.549	334.484
278.698	284.450
280.073	295.712
281.475	315.781
282.698	293.007
284.222	282.415
285.647	298.714
286.722	291.315
288.147	252.227
289.621	256.819
290.799	260.532
292.349	231.137
293.773	284.109
294.873	325.462
295.974	254.134
297.324	240.011
298.822	254.943
299.973	205.523
301.349	244.543
302.700	308.229
303.824	280.982
305.323	246.730
306.849	221.697
308.097	216.982
309.471	221.562
310.824	261.435
311.924	271.947
313.323	196.477
314.823	183.598
316.047	233.749
317.298	218.845
318.649	236.270
319.869	246.555
321.070	189.704
322.697	194.297
324.148	230.340
325.148	214.121
326.547	203.359
328.024	217.829
329.174	198.553
330.698	174.591
332.171	203.965
333.296	225.898
334.723	195.346
336.069	213.230
337.270	218.928
338.798	168.753
340.172	187.848
341.148	227.117
342.273	184.537
343.846	164.639
345.247	178.392
346.422	157.851
347.922	184.296
349.273	238.678
350.372	215.308
351.797	188.003
353.323	203.371
354.522	190.892
355.897	173.459
357.273	209.845
358.473	205.062
359.923	146.140
361.324	157.406
362.475	201.215
363.848	178.353
365.222	178.035
366.420	198.541
367.644	158.925
369.071	159.756
370.472	181.473
371.847	152.535
373.322	153.302
374.548	177.738
375.673	154.870
377.175	144.850
378.576	168.239
379.698	166.295
381.197	149.978
382.572	163.566
383.697	165.937
385.196	129.768
386.698	141.580
387.822	164.535
389.122	134.213
390.497	134.284
391.672	155.516
392.922	142.280
394.423	145.786
395.772	168.228
396.897	158.272
398.395	141.787
399.894	152.123
401.021	154.274
402.371	141.595
403.773	159.012
405.026	176.546
406.399	136.512
407.800	131.948
409.023	155.020
410.371	127.457
411.750	133.132
413.000	154.507
414.148	124.391
415.548	125.159
417.148	140.981
418.347	119.508
419.721	119.052
421.121	136.073
422.248	133.163
423.624	119.708
425.099	116.518
426.350	120.148
427.651	119.229
429.023	136.096
430.320	138.395
431.571	105.366
432.947	105.929
434.321	132.300
435.523	122.837
436.997	118.092
438.297	128.774
439.550	108.684
441.049	101.704
442.298	119.114
443.497	119.590
444.971	120.996
446.397	135.318
447.497	114.304
448.872	96.943
450.396	121.721
451.622	124.466
453.025	104.735
454.373	114.154
455.472	118.854
456.874	105.282
458.273	113.875
459.523	122.143
460.847	101.474
462.198	103.323
463.572	119.976
464.796	101.809
466.197	97.998
467.597	110.672
468.697	102.814
470.173	99.145
471.696	101.803
472.844	93.050
474.045	84.267
475.422	95.958
476.772	108.039
478.122	93.765
479.449	96.606
480.700	109.679
482.023	92.980
483.525	96.102
484.875	112.529
486.073	96.232
487.422	89.001
488.697	93.473
489.847	81.961
491.249	79.141
492.724	95.167
493.949	93.378
495.326	79.510
496.723	85.159
497.996	92.933
499.371	81.493
500.747	88.673
501.947	97.180
503.171	80.557
504.623	78.850
505.997	87.109
507.419	77.448
508.796	76.540
509.923	90.697
511.172	82.161
512.573	71.641
513.924	78.704
515.148	75.083
516.522	68.343
517.997	77.948
519.248	74.657
520.523	71.195
521.898	78.982
523.148	73.695
524.523	65.593
525.973	67.771
527.223	74.036
528.497	69.725
529.874	65.334
531.223	70.650
532.547	68.718
533.973	66.655
535.248	73.550
536.472	70.727
537.847	65.819
539.195	72.803
540.419	72.402
541.772	63.170
543.174	63.231
544.326	62.334
545.551	54.234
547.023	55.965
548.373	58.356
549.598	48.768
550.973	41.173
552.273	38.396
553.525	29.343
555.024	20.940
556.573	22.337
558.049	26.539
559.572	32.314
560.897	41.243
561.996	44.704
563.322	45.282
564.722	50.848
565.972	52.923
567.348	48.391
568.750	49.531
569.949	56.571
571.147	54.756
572.547	51.543
573.847	53.398
575.097	50.901
576.446	51.159
577.797	59.698
579.149	60.187
580.574	52.868
581.974	53.002
583.300	50.434
584.676	45.728
585.923	54.187
587.021	61.450
588.398	50.110
589.900	47.668
591.150	53.158
592.397	50.720
593.747	56.568
595.100	57.405
596.475	46.890
597.848	42.801
599.098	42.894
600.347	42.813
601.698	44.714
603.048	44.896
604.297	42.691
605.697	41.505
607.097	44.193
608.347	47.249
609.699	43.947
611.099	41.724
612.446	44.135
613.671	42.162
615.073	40.004
616.423	44.403
617.649	43.632
619.024	39.496
620.399	39.268
621.674	36.894
623.074	38.451
624.423	43.016
625.648	42.431
627.023	37.685
628.399	40.512
629.649	38.911
631.023	35.226
632.398	43.054
633.647	45.092
634.871	36.263
636.247	34.753
637.650	38.566
638.999	35.990
640.346	38.169
641.496	40.543
642.722	35.907
644.223	34.376
645.599	37.314
646.822	34.596
648.198	34.190
649.575	37.297
650.798	32.742
652.172	29.356
653.574	31.667
654.823	29.340
656.297	27.272
657.648	30.736
658.773	30.002
660.174	25.585
661.549	29.573
662.774	33.428
664.149	31.572
665.498	30.807
666.848	31.004
668.249	28.658
669.548	28.589
670.897	33.692
672.222	32.556
673.472	27.456
674.848	27.646
676.224	26.288
677.597	25.001
678.948	30.397
680.199	33.058
681.422	28.332
682.772	27.420
684.172	28.652
685.445	27.982
686.720	30.786
688.071	33.437
689.396	29.775
690.797	24.557
692.198	26.568
693.422	27.754
694.773	26.460
696.026	26.762
697.151	26.831
698.524	23.229
700.049	23.350
701.425	26.550
702.674	24.107
704.048	24.043
705.274	25.821
706.474	22.386
707.974	20.308
709.374	22.773
710.623	21.348
712.122	20.727
713.498	21.794
714.724	20.326
715.998	20.253
717.300	23.463
718.649	23.581
719.997	21.581
721.323	23.050
722.699	21.596
724.123	18.699
725.372	20.439
726.597	21.653
727.947	19.912
729.272	19.986
730.648	19.623
731.973	18.186
733.371	19.149
734.697	20.203
735.922	19.313
737.372	18.047
738.648	18.657
739.973	18.043
741.472	16.598
742.698	18.877
743.897	18.264
745.372	13.749
746.672	14.005
747.821	14.760
749.046	10.137
750.474	8.466
752.100	9.403
753.648	8.963
754.948	12.763
756.048	15.882
757.499	12.956
758.949	14.314
760.148	17.819
761.396	15.208
762.747	15.631
763.999	17.332
765.323	14.872
766.797	14.932
768.123	18.388
769.373	16.786
770.799	14.737
772.173	17.433
773.298	18.590
774.748	16.404
776.172	16.986
777.223	17.051
778.524	13.545
780.021	14.546
781.396	16.212
782.747	13.991
784.125	13.420
785.400	15.063
786.673	13.399
788.146	12.025
789.471	15.018
790.597	15.285
791.996	13.761
793.373	16.011
794.499	15.026
795.874	12.718
797.350	15.585
798.573	16.559
799.947	13.493
801.373	14.717
802.623	16.323
803.947	14.368
805.322	14.823
806.573	15.680
807.998	12.741
809.499	12.907
810.675	15.092
812.023	12.862
813.396	11.451
814.621	13.007
816.022	12.565
817.446	12.181
818.648	13.697
819.849	13.511
821.249	12.445
822.625	13.244
823.875	13.282
825.147	12.085
826.596	12.859
827.822	13.683
829.071	12.420
830.572	11.336
831.823	12.552
833.076	11.634
834.450	10.917
835.771	13.533
837.148	12.398
838.424	9.171
839.697	11.694
841.097	11.608
842.447	9.534
843.799	11.681
845.050	11.707
846.425	10.480
847.950	11.768
849.099	11.933
850.425	11.111
851.975	12.286
853.148	12.527
854.448	11.295
855.925	10.878
857.176	12.026
858.524	11.011
859.872	9.388
861.048	10.804
862.474	10.242
863.972	8.802
865.296	10.884
866.473	11.205
867.773	9.778
869.174	10.285
870.523	9.978
871.898	9.370
873.247	11.653
874.473	13.441
875.824	11.146
877.223	9.985
878.498	10.907
879.873	10.372
881.247	10.630
882.497	11.846
883.723	10.577
885.096	9.034
886.420	8.977
887.647	8.500
889.072	9.109
890.445	10.836
891.647	10.975
893.023	9.791
894.373	8.952
895.595	9.430
897.044	10.750
898.547	10.526
899.772	10.158
901.148	8.877
902.549	8.649
903.773	10.480
905.122	10.016
906.348	9.170
907.599	10.145
908.876	9.716
910.225	9.008
911.647	9.733
912.924	9.249
914.275	8.762
915.698	8.929
916.947	8.916
918.296	9.232
919.771	9.236
921.098	8.760
922.424	8.259
923.750	8.541
924.974	9.088
926.299	8.579
927.623	8.783
928.872	9.743
930.196	9.380
931.571	8.540
932.924	9.170
934.176	8.278
935.526	7.752
936.999	8.710
938.321	8.024
939.623	7.452
940.999	7.971
942.199	7.736
943.575	7.330
944.976	7.674
946.197	8.573
947.547	7.939
948.947	6.612
950.298	7.456
951.649	7.751
952.946	7.475
954.222	8.291
955.474	7.922
956.848	7.572
958.297	8.557
959.547	8.690
960.872	8.284
962.223	8.338
963.424	7.685
964.825	7.162
966.298	8.053
967.547	8.307
968.798	7.105
970.145	6.534
971.520	7.085
973.024	6.679
974.373	6.947
975.624	7.797
976.850	7.414
978.072	7.125
979.472	7.072
980.749	6.987
981.997	7.095
983.372	6.376
984.696	5.297
986.146	4.383
987.698	4.261
988.998	5.003
990.270	5.356
991.496	5.045
992.823	5.234
994.322	5.460
995.647	6.101
996.897	6.870
998.096	6.043
999.447	5.722
1000.923	6.593
1002.297	7.004
1003.548	7.187
1004.824	6.966
1006.174	6.638
1007.524	6.907
1008.899	6.969
1010.125	6.695
1011.448	6.039
1012.847	5.810
1014.148	6.619
1015.526	6.400
1016.774	6.417
1017.997	6.494
1019.347	5.516
1020.724	6.382
1022.098	7.848
1023.345	7.371
1024.621	6.412
1026.048	5.913
1027.399	5.787
1028.724	6.819
1030.098	7.272
1031.324	6.953
1032.575	6.348
1033.949	5.453
1035.299	5.689
1036.700	5.879
1037.975	6.346
1039.197	6.657
1040.670	5.400
1042.045	4.541
1043.323	5.160
1044.699	5.397
1046.048	5.037
1047.397	5.212
1048.622	4.776
1049.873	4.503
1051.248	5.469
1052.499	5.810
1053.874	4.896
1055.249	4.946
1056.500	5.131
1057.973	4.960
1059.374	5.429
1060.499	5.828
1061.722	5.396
1063.097	5.207
1064.448	5.514
1065.798	5.261
1067.171	5.354
1068.446	6.192
1069.697	6.063
1071.074	5.035
1072.424	4.953
1073.774	5.024
1075.174	4.885
1076.424	5.652
1077.523	5.662
1078.845	4.568
1080.346	4.116
1081.623	3.975
1082.848	4.022
1084.197	4.640
1085.425	4.629
1086.650	3.615
1087.998	2.857
1089.273	2.687
1090.497	2.323
1091.698	1.604
1092.924	1.063
1094.299	0.571
1096.274	0.211
1098.394	0.270
1099.919	0.631
1101.224	1.126
1102.399	1.571
1103.547	1.899
1104.948	2.186
1106.247	2.435
1107.447	2.504
1108.673	2.364
1109.925	2.072
1111.326	1.666
1112.848	1.422
1114.295	1.870
1115.646	2.413
1116.923	2.657
1118.222	3.094
1119.497	3.418
1120.724	3.381
1122.074	3.572
1123.297	3.888
1124.647	4.074
1126.123	3.779
1127.372	3.819
1128.624	4.130
1130.000	3.857
1131.249	3.731
1132.475	4.065
1133.698	3.949
1135.098	3.741
1136.499	4.003
1137.724	4.142
1139.051	3.896
1140.401	3.838
1141.648	3.727
1143.021	3.090
1144.395	3.213
1145.671	3.209
1146.872	2.641
1148.198	2.459
1149.476	2.385
1150.678	1.874
1152.127	1.472
1153.448	1.370
1154.723	1.263
1156.152	1.103
1157.376	0.937
1158.448	0.704
1159.572	0.343
1161.872	0.124
1164.446	0.209
1165.746	0.551
1166.897	0.930
1168.123	1.165
1169.372	1.626
1170.573	2.044
1171.875	2.262
1173.199	2.515
1174.347	2.714
1175.623	2.668
1177.000	2.732
1178.324	3.058
1179.523	3.084
1180.751	3.156
1182.151	3.154
1183.425	2.940
1184.748	2.924
1186.198	3.199
1187.550	3.368
1188.796	3.186
1190.072	3.150
1191.348	3.372
1192.598	3.247
1193.921	3.230
1195.247	3.314
1196.572	3.110
1197.846	3.044
1199.150	3.264
1200.376	3.035
1201.697	2.489
1203.048	2.144
1204.274	1.643
1205.723	1.168
1207.349	1.016
1208.724	1.195
1210.048	1.615
1211.499	1.998
1212.775	2.327
1214.074	2.545
1215.420	2.517
1216.596	2.856
1217.923	2.806
1219.299	2.372
1220.551	2.516
1221.801	2.479
1223.024	2.053
1224.347	1.918
1225.598	1.683
1227.000	1.164
1228.673	1.061
1230.119	1.275
1231.495	1.578
1232.848	2.204
1234.075	2.638
1235.424	2.547
1236.722	2.447
1237.872	2.663
1239.222	2.723
1240.648	2.742
1241.898	3.168
1243.172	3.146
1244.545	3.015
1245.870	3.274
1247.170	3.341
1248.546	3.190
1249.922	3.127
1251.170	3.051
1252.470	2.928
1253.875	2.985
1255.075	3.130
1256.323	2.998
1257.674	2.764
1259.000	2.871
1260.398	2.746
1261.697	2.719
1262.948	3.077
1264.274	2.875
1265.600	2.455
1266.950	2.507
1268.250	2.420
1269.571	2.469
1271.045	2.802
1272.347	2.646
1273.620	2.328
1275.020	2.313
1276.272	2.129
1277.675	2.040
1279.126	2.393
1280.348	2.624
1281.574	2.348
1282.949	2.154
1284.374	2.365
1285.747	2.330
1286.995	2.462
1288.244	2.767
1289.570	2.694
1290.970	2.618
1292.397	2.816
1293.724	2.790
1295.074	2.599
1296.348	2.534
1297.571	2.568
1298.947	2.583
1300.251	2.625
1301.502	2.846
1302.851	2.724
1304.198	2.567
1305.520	2.678
1306.996	2.461
1308.421	2.475
1309.572	2.852
1310.721	2.650
1312.070	2.210
1313.471	2.198
1314.672	2.127
1315.996	2.376
1317.444	2.591
